index,x(A/Hz/V/nm),yai0(V),yai1(V),yai3(V),yai4(V),yext(V),lambda(nm),freq(THz)
285,117.0034,0.1277,-0.0012425861505678884,-4.2586150567888725e-05,-0.006338214703689449,,780.2405554883721,384.2308066290561
287,117.032,0.128,-0.0012763998000081891,2.3600199991813398e-05,-0.0061764570508306416,,780.2405820930234,384.23079352755013
288,117.0455,0.1281,-0.0011923607883803852,7.63921161961445e-06,-0.006141711305600095,,780.2405946511628,384.2307873432732
289,117.0601,0.1283,-0.0012096223017310156,-9.62230173101597e-06,-0.00621228257372114,,780.2406082325582,384.2307806550924
290,117.0731,0.1283,-0.0012249921423856877,-2.4992142385688032e-05,-0.006275120004239743,,780.2406203255814,384.2307746998632
291,117.0897,0.1283,-0.001244618246606287,-4.4618246606287215e-05,-0.0063553585693637005,,780.240635767442,384.23076709549383
293,117.1191,0.1289,-0.0011793777323945848,-7.937773239458101e-05,-0.006197467835306114,,780.2406631162792,384.230753627515
294,117.1329,0.129,-0.0011956934093972499,4.3065906027567324e-06,-0.006164172184625949,,780.2406759534884,384.230747305811
295,117.1473,0.1289,-0.001212718463660875,-1.2718463660868484e-05,-0.005933776723046624,,780.2406893488372,384.23074070925054
296,117.1636,0.129,-0.0012319898792509804,-3.198987925097374e-05,-0.005612565193620134,,780.240704511628,384.2307332423108
297,117.1791,0.1292,-0.0012503154584931203,-5.0315458493113696e-05,-0.005287486745392367,,780.2407189302326,384.230726141847
298,117.1892,0.1294,-0.0012622566423863696,-6.225664238636297e-05,-0.005236306595256979,,780.2407283255815,384.2307215150932
299,117.2059,0.1295,-0.0011820009761504546,-8.200097615045088e-05,-0.00491702852523096,,780.2407438604652,384.23071386491654
300,117.2232,0.1296,-0.0013024546871755333,-0.00010245468717552664,-0.004600650644305926,,780.2407599534885,384.2307059398834
301,117.2375,0.1296,-0.0013193615118956697,-0.00011936151189566313,-0.0043697718178764555,,780.240773255814,384.23069938913386
302,117.2515,0.1297,-0.0012359136479853372,-0.00013591364798533345,-0.004237442896896593,,780.2407862790698,384.23069297581276
303,117.2682,0.1299,-0.0012556579817494251,-0.00015565798174942136,-0.004218164826870596,,780.2408018139536,384.2306853256371
304,117.2817,0.1298,-0.0012716189701215963,-0.00017161897012159255,-0.004283419081640039,,780.240814372093,384.2306791413637
305,117.2957,0.1297,-0.0012881711062112389,-0.00018817110621123512,-0.00425109016066022,,780.2408273953489,384.23067272804326
306,117.3084,0.1296,-0.0013031862582354448,-0.000203186258235441,-0.004412477496628597,,780.2408392093024,384.23066691024565
307,117.3227,0.1299,-0.0013200930829555813,-0.0002200930829555775,-0.0047815986701991164,,780.240852511628,384.2306603594974
309,117.3536,0.13,-0.0013566260118963447,-0.000156626011896345,-0.00553095840889356,,780.240881255814,384.2306462043847
310,117.3651,0.1299,-0.0013702224093985471,-0.00017022240939854744,-0.0057865453666601785,,780.2408919534885,384.2306409363009
311,117.3813,0.1301,-0.0013893755954451636,-0.0002893755954451599,-0.005864850472383443,,780.2409070232559,384.2306335151746
312,117.3966,0.1305,-0.0014074647156002984,-0.00030746471560029465,-0.005738805294455529,,780.240921255814,384.2306265063332
313,117.411,0.1308,-0.0014244897698639236,-0.00032448976986391986,-0.00550840983287626,,780.2409346511629,384.2306199097768
314,117.4247,0.1308,-0.0014406872173231,-0.00034068721732309626,-0.004974630817345893,,780.2409473953489,384.23061363388666
315,117.4399,0.1307,-0.0014586581079347183,-0.00035865810793471453,-0.0046481022745678,,780.2409615348838,384.2306066708554
316,117.4551,0.1306,-0.0014766289985463643,-0.00037662899854636056,-0.004321573731789763,,780.2409756744187,384.23059970782447
317,117.4694,0.1304,-0.0014935358232665008,-0.00039353582326649705,-0.003990694905360248,,780.2409889767442,384.23059315707854
318,117.4825,0.1302,-0.0015090238934646893,-0.0004090238934646856,-0.0038540157007291853,,780.2410011627908,384.23058715604566
319,117.4964,0.1301,-0.0015254578000108432,-0.00042545780001083944,-0.003921203414899099,,780.2410140930233,384.23058078853774
320,117.5122,0.1307,-0.00164413806788348,-0.0004441380678834733,-0.004297575061221914,,780.2410287906978,384.23057355065123
321,117.5292,0.1312,-0.0016642370902780618,-0.00046423709027805515,-0.004679747085746366,,780.2410446046512,384.23056576305225
322,117.5384,0.131,-0.0016751142082798293,-0.00047511420827982265,-0.004924216651959634,,780.2410531627908,384.230561548587
323,117.5545,0.1299,-0.0016941491647829293,-0.0005941491647829256,-0.005202038392832842,,780.241068139535,384.23055417327305
324,117.5688,0.1299,-0.0017110559895030658,-0.0006110559895030621,-0.005371159566403383,,780.2410814418605,384.2305476225286
325,117.585,0.1306,-0.0018302091755496783,-0.0006302091755496786,-0.005449464672126647,,780.2410965116279,384.2305402014058
326,117.5984,0.1319,-0.0018460519343783607,-0.0007460519343783639,-0.00541423556204601,,780.2411089767443,384.2305340629464
327,117.6135,0.1323,-0.0018639045954464903,-0.0007639045954464935,-0.005187223654417705,,780.2411230232559,384.2305271457274
328,117.6296,0.1329,-0.0018829395519495903,-0.0007829395519495935,-0.004865045395290923,,780.2411380000001,384.23051977041484
329,117.6428,0.1334,-0.0018985458516912676,-0.0008985458516912667,-0.004528849555509917,,780.2411502790699,384.23051372357486
330,117.6571,0.1331,-0.001915452676411404,-0.0009154526764114032,-0.0040979707290805245,,780.2411635813954,384.23050717283184
331,117.6728,0.1334,-0.0020340147147405244,-0.0009340147147405206,-0.003773859010553049,,780.2411781860466,384.23049998075754
332,117.687,0.1339,-0.002050803309917172,-0.0010508033099171712,-0.003442496819273555,,780.2411913953489,384.23049347582435
333,117.7019,0.1344,-0.0020684195118983242,-0.0010684195118983233,-0.003314518181944892,,780.241205255814,384.23048665022566
334,117.7156,0.1348,-0.002184616959357469,-0.001184616959357468,-0.003380739166414626,,780.241218,384.23048037433983
335,117.73,0.1349,-0.0022016420136211495,-0.0012016420136211486,-0.003550343704835479,,780.2412313953489,384.23047377778846
336,117.7456,0.1349,-0.0023200858224067533,-0.0013200858224067524,-0.003725748621457914,,780.2412459069768,384.2304666315248
337,117.7607,0.1348,-0.002337938483474883,-0.001337938483474882,-0.004098736713829654,,780.2412599534885,384.23045971430827
338,117.7721,0.135,-0.0024514166514335994,-0.0014514166514335916,-0.004353840306746071,,780.2412705581396,384.23045449203903
339,117.7855,0.1354,-0.002467259410262282,-0.001467259410262274,-0.004718611196665334,,780.2412830232558,384.2304483535824
340,117.8021,0.1359,-0.002586885514482877,-0.0015868855144828761,-0.00489884976178917,,780.2412984651163,384.230440749226
341,117.8172,0.1362,-0.0027047381755510094,-0.0017047381755510085,-0.004971837854160943,,780.2413125116279,384.2304338320104
342,117.8306,0.1365,-0.002720580934379692,-0.001820580934379687,-0.004936608744080251,,780.2413249767443,384.23042769355436
343,117.8448,0.1369,-0.0028373695295563356,-0.0018373695295563347,-0.004705246552800746,,780.2413381860466,384.2304211886236
344,117.8585,0.1371,-0.002853566977015512,-0.001953566977015514,-0.004471467537270457,,780.2413509302326,384.23041491273995
345,117.875,0.1374,-0.0029730748516925976,-0.0020730748516925926,-0.004251222737544136,,780.2413662790698,384.23040735419414
346,117.8867,0.1375,-0.003086907708281808,-0.0020869077082818002,-0.003907776425011,,780.2413771627907,384.2304019944982
347,117.9034,0.1377,-0.003106652042045896,-0.002206652042045891,-0.0034884983549851034,,780.2413926976744,384.23039434433423
348,117.9174,0.1384,-0.003223204178135562,-0.002323204178135564,-0.0031561694340052626,,780.2414057209303,384.2303879310233
349,117.9314,0.1392,-0.0033397563142252076,-0.0025397563142252055,-0.0030238405130252888,,780.2414187441861,384.2303815177126
350,117.9445,0.1396,-0.003455244384423392,-0.00265524438442339,-0.0030871613083942595,,780.2414309302326,384.23037551668637
351,117.963,0.14,-0.0035771168499704187,-0.0027771168499704166,-0.003176583805670763,,780.2414481395349,384.230367041955
352,117.9749,0.1407,-0.003791186165646658,-0.002991186165646656,-0.00333410422283803,,780.2414592093024,384.23036159064145
353,117.9895,0.1414,-0.003908447678997291,-0.0031084476789972892,-0.003704675490959042,,780.2414727906977,384.23035490247554
354,118.0036,0.1421,-0.004125118044630449,-0.003325118044630447,-0.003972829934829281,,780.2414859069768,384.2303484433566
355,118.0166,0.1426,-0.004240487885285117,-0.003440487885285115,-0.004135667365347984,,780.2414980000001,384.2303424881407
356,118.0334,0.1432,-0.004360350448592724,-0.003660350448592725,-0.004416872660172211,,780.241513627907,384.23033479216974
357,118.0462,0.1438,-0.004475483830160394,-0.003775483830160388,-0.0044787433609906335,,780.2415255348837,384.23032892857304
358,118.0605,0.1441,-0.004592390654880554,-0.003892390654880555,-0.004447864534561252,,780.2415388372093,384.2303223778363
359,118.0761,0.1446,-0.004810834463666154,-0.004110834463666155,-0.00422326945118362,,780.2415533488372,384.2303152315783
360,118.0897,0.145,-0.005026913681581847,-0.004326913681581841,-0.003889007070803252,,780.241566,384.23030900150735
361,118.1031,0.1455,-0.005242756440410501,-0.004542756440410495,-0.0034537779607225483,,780.2415784651164,384.2303028630553
362,118.1169,0.146,-0.005359072117413162,-0.004759072117413159,-0.003120482310042416,,780.2415913023257,384.2302965413661
363,118.1315,0.1463,-0.005576333630763826,-0.004976333630763823,-0.0027910535781634493,,780.241604883721,384.23028985320246
364,118.1482,0.1468,-0.005796077964527913,-0.005196077964527909,-0.002771775508137453,,780.2416204186047,384.230282203043
365,118.1619,0.1472,-0.006012275411987088,-0.0054122754119870845,-0.0026379964926072086,,780.2416331627908,384.23027592716375
366,118.1768,0.1476,-0.006229891613968211,-0.005629891613968208,-0.002910017855278668,,780.2416470232558,384.23026910157284
367,118.193,0.1484,-0.0063490448000148025,-0.005949044800014798,-0.0028883229610019434,,780.2416620930234,384.2302616804607
368,118.208,0.1494,-0.006566779231539442,-0.006166779231539438,-0.0030608276885235597,,780.2416760465117,384.230254809061
369,118.2199,0.1499,-0.006680848547215651,-0.006380848547215649,-0.0032183481056906604,,780.2416871162791,384.2302493577507
370,118.2368,0.15,-0.00690082934006675,-0.006500829340066745,-0.0035000367653649778,,780.2417028372093,384.2302416159741
371,118.2526,0.1504,-0.007119509607939355,-0.006819509607939353,-0.0036764084116877593,,780.2417175348837,384.2302343781004
372,118.2665,0.1511,-0.007335943514485507,-0.007135943514485502,-0.003943596125857651,,780.2417304651163,384.23022801060415
373,118.2797,0.1514,-0.007551549814227211,-0.007351549814227212,-0.004107400286076757,,780.2417427441861,384.2302219637734
374,118.295,0.1518,-0.007769638934382317,-0.007569638934382318,-0.004081355108148721,,780.2417569767442,384.23021495494703
375,118.3105,0.1522,-0.008087964513624459,-0.00788796451362446,-0.0039562766599210986,,780.2417713953489,384.2302078545023
376,118.3233,0.1525,-0.008403097895192127,-0.008203097895192121,-0.003718147360739499,,780.2417833023256,384.23020199090945
377,118.3368,0.1531,-0.008619058883564297,-0.008519058883564294,-0.0033834016155089297,,780.2417958604651,384.2301958066516
378,118.3518,0.1539,-0.00893679331508894,-0.008836793315088937,-0.0029559063430304455,,780.2418098139535,384.2301889352542
379,118.3674,0.1543,-0.009155237123874567,-0.009055237123874564,-0.002631311259652991,,780.2418243255814,384.2301817890011
380,118.3812,0.1546,-0.00937155280087723,-0.009271552800877228,-0.0023980156089728477,,780.2418371627907,384.2301754673159
381,118.3945,0.155,-0.009587277330162368,-0.009487277330162365,-0.0022623031340420208,,780.2418495348837,384.2301693746775
382,118.4086,0.1552,-0.009803947695795553,-0.009803947695795553,-0.0021304575779123036,,780.2418626511628,384.2301629155648
383,118.4237,0.1561,-0.010121800356863657,-0.010121800356863657,-0.0021034456702839766,,780.2418766976745,384.2301559983592
384,118.4391,0.1566,-0.010440007706562282,-0.010440007706562282,-0.0021778838572061865,,780.2418910232559,384.23014894372596
385,118.4523,0.1573,-0.010655614006303958,-0.010655614006303958,-0.002341688017425181,,780.2419033023257,384.2301428968977
386,118.4676,0.1576,-0.010973703126459122,-0.010973703126459122,-0.0027156428394972676,,780.2419175348838,384.2301358880742
387,118.4815,0.1582,-0.011190137033005247,-0.011290137033005243,-0.0030828305536671485,,780.2419304651163,384.2301295205813
388,118.4979,0.1586,-0.01150952667813887,-0.011509526678138864,-0.0033621023890908486,,780.2419457209303,384.23012200785604
389,118.5099,0.1591,-0.011723714223358571,-0.011823714223358567,-0.003520106171108095,,780.241956883721,384.2301165107402
390,118.5254,0.1594,-0.012042039802600685,-0.01214203980260068,-0.0035950277228804506,,780.2419713023256,384.23010941029906
391,118.5394,0.159,-0.012358591938690357,-0.012458591938690353,-0.0035626988019006323,,780.2419843255815,384.2301029969977
392,118.5547,0.1598,-0.012676681058845458,-0.012776681058845461,-0.003336653623972563,,780.2419985581396,384.2300959881757
393,118.5689,0.1605,-0.012893469654022133,-0.012993469654022136,-0.0030052914326930136,,780.2420117674419,384.23008948325617
394,118.5847,0.1611,-0.013112149921894745,-0.013312149921894736,-0.00268166307901585,,780.2420264651163,384.2300822453882
395,118.5994,0.1612,-0.013429529664788886,-0.013529529664788889,-0.002352717711987029,,780.242040139535,384.2300755114227
396,118.6161,0.1615,-0.013749273998552976,-0.013849273998552972,-0.0019334396419610211,,780.2420556744187,384.23006786127166
397,118.6258,0.1622,-0.013960742264272241,-0.014060742264272244,-0.0017803260324248948,,780.2420646976744,384.23006341777096
398,118.6426,0.1627,-0.014180604827579824,-0.014380604827579815,-0.001661531327249166,,780.2420803255815,384.23005572181114
399,118.6591,0.1628,-0.014500112702256901,-0.0147001127022569,-0.0017412865275228673,,780.2420956744187,384.23004816327943
400,118.675,0.1634,-0.014818911199673025,-0.015018911199673024,-0.0019181415386957945,,780.2421104651163,384.2300408796038
401,118.687,0.1645,-0.015033098744892726,-0.015233098744892724,-0.0022761453207130744,,780.2421216279071,384.23003538249026
402,118.7024,0.1659,-0.015251306094591348,-0.01555130609459135,-0.0025505835076351513,,780.2421359534884,384.2300283278615
403,118.7165,0.1672,-0.015467976460224513,-0.015767976460224507,-0.0027187379515054566,,780.2421490697675,384.2300218687535
404,118.7315,0.1689,-0.015685710891749152,-0.01608571089174915,-0.0029912426790271174,,780.2421630232559,384.2300149973623
405,118.7439,0.1707,-0.015800371355142832,-0.016300371355142833,-0.0030511799204449574,,780.2421745581396,384.2300093170124
406,118.7581,0.1732,-0.01591715995031951,-0.016417159950319504,-0.0032198177291654084,,780.2421877674419,384.2300028120958
407,118.7717,0.1767,-0.016033239168235167,-0.01663323916823517,-0.0030855553487850185,,780.2422004186047,384.229996582035
408,118.7867,0.1818,-0.01605097359975978,-0.016850973599759782,-0.0029580600763065013,,780.242214372093,384.2299897106448
409,118.8011,0.1908,-0.015967998654023464,-0.01706799865402346,-0.0027276646147273986,,780.2422277674419,384.2299831141103
410,118.8162,0.2041,-0.015685851315091565,-0.017285851315091562,-0.002400652707099049,,780.2422418139536,384.22997619691114
411,118.8318,0.2236,-0.015204295123877193,-0.01750429512387719,-0.00197605762372155,,780.2422563255815,384.22996905066606
412,118.8461,0.2471,-0.014521201948597358,-0.01772120194859736,-0.0015451787972921571,,780.242269627907,384.2299624999415
413,118.8577,0.2378,-0.014934916575643047,-0.017834916575643046,-0.0014012491199086874,,780.2422804186047,384.22995718606734
414,118.8726,0.2142,-0.016052532777624202,-0.018052532777624197,-0.001273270482580302,,780.2422942790698,384.22995036048763
415,118.8864,0.1984,-0.016768848454626867,-0.01826884845462686,-0.0014399748319000594,,780.2423071162791,384.22994403881006
416,118.9024,0.1895,-0.01728776518158648,-0.018487765181586478,-0.0014173132079231543,,780.2423220000001,384.2299367093291
417,118.9177,0.1869,-0.017605854301741587,-0.01860585430174158,-0.0016912680299950855,,780.2423362325582,384.2299297005132
418,118.9296,0.1872,-0.017719923617417796,-0.018719923617417797,-0.0018487884471622418,,780.2423473023256,384.2299242492121
419,118.9458,0.19,-0.017739076803464413,-0.018939076803464412,-0.002227093552885584,,780.2423623720931,384.22991682811335
420,118.96,0.1954,-0.01775586539864106,-0.019055865398641063,-0.002395731361606035,,780.2423755813954,384.2299103231999
421,118.974,0.2037,-0.017572417534730732,-0.01917241753473073,-0.00256340244062625,,780.2423886046512,384.22990390990515
422,118.9923,0.2221,-0.01699405354119078,-0.019294053541190778,-0.0027518582082025622,,780.242405627907,384.22989552681304
423,119.0062,0.2573,-0.015810487447736936,-0.019310487447736932,-0.0028190459223725872,,780.2424185581395,384.229889159328
424,119.0204,0.3164,-0.013727276042913579,-0.019427276042913576,-0.002787683731092949,,780.2424317674419,384.2298826544155
425,119.0345,0.3403,-0.012943946408546743,-0.019443946408546735,-0.002555838174963243,,780.242444883721,384.22987619531244
426,119.0507,0.2922,-0.014763099594593355,-0.01946309959459335,-0.002334143280686596,,780.2424599534884,384.22986877421556
427,119.0645,0.2515,-0.016279415271595994,-0.01957941527159599,-0.0019008476300064747,,780.2424727906978,384.22986245254066
428,119.0792,0.2338,-0.01699679501449014,-0.01969679501449014,-0.001571902262977709,,780.2424864651164,384.2298557185828
429,119.094,0.235,-0.017014292986927776,-0.019814292986927773,-0.0013434402607989115,,780.2425002325582,384.2298489388161
430,119.1093,0.2507,-0.01653238210708291,-0.019832382107082908,-0.0011173950828709533,,780.2425144651163,384.2298419300034
431,119.1227,0.2607,-0.016148224865911595,-0.01984822486591159,-0.000982165972790272,,780.2425269302327,384.22983579156625
432,119.1363,0.2368,-0.017064304083827253,-0.01986430408382725,-0.0009479035924098711,,780.2425395813954,384.22982956151094
433,119.1514,0.2153,-0.017782156744895382,-0.01988215674489538,-0.000920891684781544,,780.242553627907,384.2298226443174
434,119.1666,0.2017,-0.01830012763550703,-0.019900127635507026,-0.0011943631420034406,-0.019900127635507026,780.2425677674419,384.22981568131485
435,119.1811,0.199,-0.018417270919314173,-0.01981727091931417,-0.0014644510452743176,,780.242581255814,384.22980903897707
436,119.1953,0.2064,-0.01813405951449082,-0.01983405951449082,-0.001833088853994802,,780.2425944651163,384.22980253406735
437,119.2077,0.2242,-0.017448719977884504,-0.0197487199778845,-0.001993026095412631,,780.242606,384.2297968537237
438,119.2232,0.2284,-0.017167045557126642,-0.019667045557126638,-0.00226794764718502,,780.2426204186047,384.2297897532944
439,119.2379,0.2081,-0.01788442530002076,-0.019684425300020757,-0.0023390022801560995,,780.2426340930233,384.2297830193392
440,119.2502,0.2006,-0.018098967533870983,-0.019598967533870984,-0.002398456156723794,,780.2426455348838,384.2297773848054
441,119.2676,0.2008,-0.01801953947443955,-0.019519539474439546,-0.0023825616406488725,,780.2426617209303,384.22976941400174
442,119.2809,0.2121,-0.017535264003724717,-0.019435264003724716,-0.0021468491657180566,,780.2426740930233,384.2297633213762
443,119.2952,0.2377,-0.016552170828444852,-0.01935217082844485,-0.0019159703392885308,,780.2426873953489,384.2297567706587
444,119.3097,0.2246,-0.016869314112252023,-0.019269314112252016,-0.0014860582425594293,,780.242700883721,384.229750128323
445,119.3243,0.1909,-0.01798657562560265,-0.01918657562560265,-0.0010566295106803625,,780.2427144651164,384.22974344017837
446,119.3397,0.1708,-0.018604782975301278,-0.019004782975301275,-0.000631067697602572,,780.2427287906977,384.22973638556033
447,119.3542,0.1605,-0.018821926259108446,-0.01892192625910844,-0.000401155600873504,,780.2427422790698,384.2297297432253
