index,x(A/Hz/V/nm),yai0(V),yai1(V),yai3(V),yai4(V),yext(V),lambda(nm),freq(THz)
469,117.2218,0.1323,-0.0006118117465520184,-1.1811746552015112e-05,-0.0048049564995460425,,780.2407586511629,384.2307065812156
470,117.2414,0.1324,-0.0006352933314048431,-3.529333140483981e-05,-0.004299497430334809,,780.240776883721,384.2306976025658
471,117.2585,0.1326,-0.0006557798161489076,-5.577981614890426e-05,-0.003981979568931204,,780.2407927906977,384.2306897691523
472,117.2779,0.1331,-0.0006790217929930759,-7.902179299307255e-05,-0.0037755557963445874,,780.2408108372093,384.2306808821221
473,117.2992,0.1332,-0.0007045400459198964,-0.00010454004591989308,-0.003878296705824291,,780.2408306511628,384.23067112471324
474,117.318,0.1334,-0.0007270631987379289,-0.0001270631987379256,-0.004168978823111513,,780.2408481395349,384.2306625125405
475,117.3371,0.1338,-0.0007499457635690293,-0.000149945763569026,-0.004461107995461844,,780.2408659069768,384.2306537629399
476,117.3557,0.1341,-0.0007722293083783499,-0.0001722293083783466,-0.004750825409373716,,780.2408832093024,384.23064524238674
477,117.3766,0.1343,-0.0007972683452877743,-0.00019726834528777104,-0.005051636912102586,,780.2409026511629,384.23063566821736
478,117.3947,0.134,-0.0008189528700753429,-0.0002189528700753396,-0.005238942567575899,,780.2409194883721,384.23062737671216
479,117.415,0.134,-0.0008432730829586593,-0.00024327308295865602,-0.005236859960178697,,780.2409383720931,384.23061807740015
480,117.4326,0.134,-0.0008643585877244758,-0.0002643585877244725,-0.005121753857213529,,780.2409547441861,384.23061001494284
481,117.4518,0.1344,-0.0008873609565599322,-0.0002873609565599289,-0.004714365381251584,,780.2409726046512,384.2306012195352
482,117.4731,0.1348,-0.0009128792094867527,-0.0003128792094867494,-0.004117106290731254,,780.2409924186047,384.2305914621303
483,117.4907,0.1346,-0.0009339647142525692,-0.00043396471425256877,-0.0036020001877660746,,780.2410087906977,384.23058339967406
484,117.5085,0.1349,-0.0009552898270270976,-0.0004552898270270972,-0.0033878587881763234,,780.2410253488373,384.23057524559937
485,117.5281,0.1352,-0.001078771411879946,-0.00047877141187994965,-0.0032823997189651566,,780.2410435813954,384.2305662669557
486,117.5501,0.1354,-0.0011051282928372305,-0.0005051282928372341,-0.003388517090258669,,780.2410640465117,384.23055618888674
487,117.567,0.1354,-0.001125375169572583,-0.0005253751695725867,-0.003670034525479704,,780.2410797674419,384.2305484470979
488,117.5855,0.1357,-0.0011475389103775754,-0.000647538910377575,-0.0039592695877038175,,780.2410969767442,384.23053997235877
489,117.6048,0.1361,-0.00117066108321736,-0.0006706610832173596,-0.004552363463429576,,780.2411149302326,384.23053113114497
490,117.6243,0.136,-0.0012940228640658871,-0.0006940228640658838,-0.004846422042530718,,780.2411330697674,384.23052219831277
491,117.6455,0.1369,-0.001319421312988324,-0.0008194213129883235,-0.004848680600322619,,780.2411527906977,384.23051248672135
492,117.6635,0.1381,-0.0014409860337715671,-0.0008409860337715638,-0.0046355039041083845,,780.2411695348837,384.23050424103087
493,117.6818,0.139,-0.0014629101665678476,-0.0009629101665678472,-0.0040237742629570805,,780.2411865581396,384.2304958579125
494,117.7016,0.1385,-0.001586631359429408,-0.0009866313594294115,-0.0035192798971212524,,780.2412049767443,384.2304867876538
495,117.7203,0.1383,-0.0016090347082430845,-0.001109034708243084,-0.0032094796627207822,,780.241222372093,384.23047822129877
496,117.7397,0.1382,-0.0017322766850872279,-0.0011322766850872246,-0.002903055890134232,,780.2412404186047,384.2304693342784
497,117.7573,0.1382,-0.0017533621898530721,-0.0012533621898530717,-0.002887949787169053,,780.2412567906978,384.2304612718272
498,117.7765,0.1386,-0.0018763645586884967,-0.0013763645586884962,-0.0030805613112070973,,780.2412746511628,384.2304524764264
499,117.7982,0.1394,-0.002002362027632716,-0.0015023620276327157,-0.003685231627437502,,780.2412948372094,384.23044253579155
500,117.815,0.1399,-0.0020224891003637405,-0.0016224891003637429,-0.004166266710970812,,780.2413104651164,384.23043483981655
501,117.8342,0.1403,-0.002145491469199172,-0.0016454914691991715,-0.004358878235008856,,780.2413283255814,384.230426044417
502,117.8536,0.1406,-0.002268733446043336,-0.0017687334460433357,-0.004352454462422328,,780.2413463720931,384.230417157399
503,117.8721,0.1408,-0.0023908971868483314,-0.001890897186848331,-0.004241689524646486,,780.2413635813954,384.2304086826658
504,117.8935,0.1417,-0.002516535243779504,-0.0020165352437795034,-0.003944912785813881,,780.2413834883721,384.2303988794614
505,117.9109,0.1429,-0.0026373811405366113,-0.0022373811405366067,-0.003428841979473296,,780.2413996744186,384.23039090863193
506,117.9288,0.1432,-0.0027588260573154916,-0.002358826057315494,-0.003115182931571203,,780.2414163255814,384.230382708756
507,117.9458,0.1433,-0.002879192738055203,-0.0024791927380552053,-0.002697182718480018,,780.2414321395349,384.2303749211647
508,117.9668,0.1437,-0.003004351578968986,-0.0026043515789689817,-0.0024984765728966463,,780.2414516744186,384.2303653011994
509,117.9861,0.144,-0.0031274737518087667,-0.002827473751808765,-0.0025915704486222935,,780.241469627907,384.23035645999363
510,118.0047,0.1443,-0.003349757296618086,-0.0029497572966180885,-0.002781287862534121,,780.2414869302327,384.23034793945374
511,118.0238,0.145,-0.0034726398614491893,-0.0030726398614491918,-0.0030734170348844514,,780.2415046976745,384.2303391898674
512,118.0427,0.1459,-0.0035952828182715807,-0.003295282818271579,-0.0032645815038593873,,780.2415222790698,384.2303305319002
513,118.0634,0.1464,-0.003820082247172292,-0.0035200822471722903,-0.0036644283032128966,,780.2415415348838,384.2303210493652
514,118.083,0.1472,-0.00394356383202514,-0.0037435638320251416,-0.00395896923400163,,780.2415597674419,384.2303120707334
515,118.0996,0.1476,-0.0041634512967474585,-0.003863451296747457,-0.0041390396141595676,,780.2415752093024,384.23030446638234
516,118.1213,0.1483,-0.004289448765691699,-0.0040894487656917,-0.004043709930390049,,780.2415953953489,384.2302945257552
517,118.1397,0.1487,-0.004511492702492334,-0.004311492702492335,-0.0037324626409264705,,780.241612511628,384.23028609683666
518,118.1588,0.1488,-0.0046343752673234095,-0.004434375267323411,-0.0032245918132768336,,780.2416302790698,384.23027734725326
519,118.1777,0.1495,-0.004757018224145794,-0.004557018224145795,-0.002715756282251791,,780.2416478604652,384.23026868928883
520,118.1984,0.1499,-0.004981817653046512,-0.0047818176530465065,-0.0024156030816052665,,780.2416671162791,384.23025920675684
521,118.2177,0.1502,-0.0052049398258862956,-0.005004939825886297,-0.0022086969573309467,,780.2416850697675,384.2302503655559
522,118.2384,0.1511,-0.005329739254787004,-0.005229739254787008,-0.0023085437566845446,,780.2417043255814,384.23024088302486
523,118.2567,0.1517,-0.00555166338758329,-0.005451663387583287,-0.0027968141155332304,,780.2417213488372,384.23023249991803
524,118.2742,0.1522,-0.005772629088344777,-0.005672629088344774,-0.003081225660880371,,780.241737627907,384.23022448328624
525,118.2941,0.1527,-0.005996470085210669,-0.005896470085210666,-0.0033772136467323244,,780.2417561395349,384.230215367231
526,118.3127,0.1534,-0.00611875363002002,-0.006118753630020013,-0.0036669310606441963,,780.2417734418606,384.2302068466973
527,118.3316,0.154,-0.006341396586842407,-0.006341396586842407,-0.003758095529619032,,780.2417910232558,384.2301981887361
528,118.3495,0.1546,-0.00656284150362129,-0.00656284150362129,-0.0034444364817170503,,780.2418076744186,384.2301899888684
529,118.3693,0.1551,-0.006686562696482823,-0.006786562696482826,-0.003039942115881211,,780.2418260930233,384.2301809186241
530,118.3901,0.1558,-0.006911481929387897,-0.007011481929387893,-0.0025402712669225225,,780.2418454418605,384.2301713902872
531,118.4093,0.1563,-0.007134484298223352,-0.007234484298223348,-0.002032882790960422,,780.2418633023257,384.2301625948995
532,118.4269,0.157,-0.007255569802989165,-0.0074555698029891634,-0.001917776687995365,,780.2418796744187,384.2301545324613
533,118.4451,0.1578,-0.007377374131781092,-0.007677374131781094,-0.0019055646951564031,,780.2418966046512,384.23014619516766
534,118.4644,0.1589,-0.007600496304620875,-0.007900496304620877,-0.0020986585708820393,,780.2419145581396,384.23013735397194
535,118.486,0.1604,-0.007726373969560767,-0.008126373969560764,-0.002502846535424874,,780.2419346511629,384.2301274591627
536,118.5047,0.1619,-0.00784877731837444,-0.008248777318374444,-0.003093046301024416,,780.2419520465116,384.23011889282367
537,118.5233,0.1639,-0.00797106086318379,-0.00847106086318379,-0.003282763714936243,,780.2419693488373,384.2301103722943
538,118.542,0.1669,-0.007993464211997467,-0.008693464211997466,-0.0032729634805357954,,780.2419867441861,384.23010180595605
539,118.5637,0.1715,-0.008019461680941711,-0.008819461680941713,-0.00287763379676631,,780.2420069302326,384.2300918653393
540,118.5821,0.1802,-0.007841505617742321,-0.00904150561774232,-0.002266386507302709,,780.2420240465117,384.2300834364297
541,118.6019,0.1956,-0.007565226810603884,-0.009165226810603881,-0.0018618921414668699,,780.2420424651164,384.2300743661905
542,118.62,0.2039,-0.007386911335391481,-0.00928691133539148,-0.0016491977969403382,,780.2420593023256,384.23006607470955
543,118.6389,0.1872,-0.008009554292213866,-0.009409554292213865,-0.0015403622659152516,,780.242076883721,384.2300574167547
544,118.6573,0.1776,-0.008531598229014503,-0.009631598229014507,-0.0016291149764516843,,780.2420940000001,384.23004898784654
545,118.6767,0.174,-0.008854840205858645,-0.009754840205858643,-0.0019226912038650679,,780.2421120465117,384.23004010084605
546,118.6985,0.1733,-0.00898095747880722,-0.009880957478807219,-0.002327843871783253,,780.2421323255815,384.23003011442324
547,118.715,0.1744,-0.009100725139525173,-0.010000725139525171,-0.0028074319002534542,,780.2421476744187,384.2300225558927
548,118.7349,0.1779,-0.00902456613639107,-0.010124566136391067,-0.0031034198861052964,,780.2421661860466,384.23001343984697
549,118.7539,0.1854,-0.008847328897217809,-0.010147328897217811,-0.003095066706767957,,780.2421838604652,384.2300047360852
550,118.7723,0.2007,-0.008369372834018451,-0.01026937283401845,-0.0027838194173043784,,780.2422009767442,384.2299963071794
551,118.789,0.2388,-0.007289380102745116,-0.010389380102745115,-0.0022643721491499846,,780.2422165116279,384.22998865703164
552,118.8115,0.2481,-0.007016336003724151,-0.010416336003724151,-0.001572901278882044,,780.2422374418605,384.2299783499467
553,118.8288,0.2148,-0.008137062096476931,-0.010437062096476928,-0.0012563481208538452,,780.2422535348837,384.229970424944
554,118.8478,0.2021,-0.008659824857303676,-0.010559824857303675,-0.0011479949415164614,,780.2422712093024,384.22996172118405
555,118.8662,0.2069,-0.008481868794104314,-0.010581868794104311,-0.0012367476520528942,,780.2422883255814,384.2299532922803
556,118.884,0.2185,-0.00810319390687881,-0.010603193906878812,-0.0014226062524631544,,780.242304883721,384.22994513823227
557,118.9054,0.2007,-0.00872883196380999,-0.010628831963809988,-0.001725829513630539,,780.2423247906977,384.2299353350515
558,118.9233,0.1878,-0.009250276880588874,-0.010650276880588873,-0.00211217046572848,,780.2423414418605,384.229927135195
559,118.943,0.1826,-0.009373878269446079,-0.010673878269446081,-0.0024071937482050276,-0.010673878269446081,780.2423597674419,384.22991811077236
560,118.9627,0.1842,-0.009297479658303263,-0.010597479658303259,-0.002702217030681464,,780.2423780930233,384.2299090863502
561,118.9841,0.198,-0.008723117715234437,-0.01052311771523444,-0.0028054402918488708,,780.2423980000001,384.2298992831712
562,119.0031,0.1933,-0.008845880476061184,-0.010445880476061181,-0.0024970871125115646,,780.2424156744187,384.2298905794146
563,119.022,0.1834,-0.009168523432883567,-0.01046852343288357,-0.002088251581486511,,780.242433255814,384.2298819214676
564,119.0424,0.1855,-0.009092963449771244,-0.01039296344977124,-0.0015866513257768444,,780.2424522325582,384.22987257638243
565,119.0595,0.1981,-0.008613449934515308,-0.010313449934515308,-0.0013691334643732844,,780.2424681395349,384.22986474300257
566,119.0811,0.2035,-0.008339327599455194,-0.010239327599455193,-0.0010733214289160853,,780.2424882325582,384.22985484820737
567,119.0987,0.1769,-0.009160413104220985,-0.010160413104220986,-0.0008582153259508729,,780.2425046046512,384.22984678578206
568,119.1177,0.1643,-0.009483175865047731,-0.010083175865047728,-0.0010498621466135671,,780.2425222790698,384.22983808202787
569,119.1371,0.1571,-0.009606417841891896,-0.009906417841891897,-0.0014434383740269952,,780.2425403255814,384.2298291950371
570,119.1582,0.15,-0.009731696486810007,-0.009831696486810003,-0.0020452145801311827,,780.2425599534885,384.2298195292899
571,119.1763,0.1554,-0.009353381011597571,-0.009653381011597573,-0.0024325202356045295,,780.2425767906977,384.2298112378199
572,119.1947,0.1561,-0.009175424948398209,-0.00947542494839821,-0.0024212729461410842,,780.2425939069768,384.2298028089226
573,119.2139,0.1556,-0.009098427317233669,-0.009398427317233664,-0.002213884470179006,,780.2426117674419,384.229794013552
574,119.231,0.155,-0.008918913801977735,-0.00921891380197773,-0.0018963666087754016,,780.2426276744187,384.22978618017527
575,119.2521,0.1542,-0.00884419244689584,-0.00904419244689584,-0.0014981428148796994,,780.2426473023256,384.2297765144303
576,119.274,0.1536,-0.00867042952384877,-0.008870429523848769,-0.0009037778344856418,,780.2426676744186,384.22976648221197
577,119.2904,0.1529,-0.008590077380562396,-0.008690077380562398,-0.0005828835112681174,,780.2426829302326,384.2297589695009
578,119.3093,0.1523,-0.008412720337384758,-0.008512720337384753,-0.00047404798024297534,,780.242700511628,384.2297503115599
579,119.33,0.152,-0.008237519766285499,-0.008237519766285499,-0.0006738947795964512,,780.2427197674419,384.2297408290534
580,119.3493,0.1517,-0.008060641939125285,-0.008060641939125285,-0.0008669886553221984,,780.2427377209303,384.2297319878764
581,119.3662,0.1515,-0.00788088881586066,-0.0077808888158606634,-0.0009485060905431997,,780.2427534418605,384.2297242461207
582,119.386,0.1511,-0.007704610008722197,-0.007604610008722201,-0.0013440117247073835,,780.2427718604652,384.2297151758984
583,119.4048,0.1508,-0.007527133161540231,-0.007427133161540228,-0.0018346938419945835,,780.2427893488373,384.22970656376856
584,119.4231,0.1503,-0.00734905729433654,-0.0072490572943365375,-0.002022964200843469,,780.2428063720931,384.229698180685
585,119.4422,0.1497,-0.007171939859167614,-0.0069719398591676085,-0.002015093373193666,,780.242824139535,384.22968943112835
586,119.4608,0.1493,-0.006994223403976964,-0.006794223403976958,-0.0018048107871056485,,780.2428414418605,384.229680910618
587,119.4809,0.1488,-0.006718304008851567,-0.006518304008851568,-0.0015017634763329069,,780.242860139535,384.2296717029702
588,119.5,0.1485,-0.006441186573682638,-0.006241186573682639,-0.00089389264868317,,780.2428779069768,384.22966295341473
589,119.5185,0.1484,-0.006263350314487631,-0.00596335031448763,-0.0005831277109074051,,780.2428951162791,384.22965447871474
590,119.539,0.1484,-0.00598791013537963,-0.005787910135379631,-0.0003820098068854638,,780.2429141860466,384.22964508783144
591,119.5584,0.148,-0.0058111521122238,-0.005511152112223798,-0.0002755860342989469,,780.2429322325582,384.2296362008496
592,119.5781,0.1477,-0.0055347535010810064,-0.005234753501081005,-0.00027060931677541644,,780.2429505581396,384.22962717644066
593,119.5974,0.1476,-0.0053578756739207645,-0.005057875673920763,-0.00046370319250105263,,780.242968511628,384.2296183352688
594,119.6166,0.1473,-0.005080878042756247,-0.004780878042756245,-0.0011563147165392085,,780.2429863720931,384.2296095399066
595,119.6359,0.1473,-0.004904000215596033,-0.004604000215596031,-0.0016494085922648671,,780.2430043255814,384.2296006987356
596,119.655,0.1473,-0.004726882780427107,-0.004426882780427105,-0.0019415377646151977,,780.2430220930233,384.2295919491834
597,119.6745,0.1473,-0.004450244561275601,-0.0041502445612756,-0.0019355963437162615,,780.2430402325582,384.2295830163948
598,119.6931,0.1472,-0.004272528106084951,-0.003972528106084949,-0.001825313757628233,,780.2430575348837,384.2295744958892
599,119.7111,0.1472,-0.0040940928268681925,-0.003794092826868191,-0.001512137061413843,,780.2430742790698,384.22956625023903
600,119.7297,0.1473,-0.0038163763716775115,-0.0036163763716775127,-0.0007018544753256695,,780.2430915813954,384.2295577297341
601,119.7504,0.1474,-0.003641175800578225,-0.0034411758005782264,-1.701274679133391e-06,,780.2431108372093,384.2295482472373
602,119.7686,0.1472,-0.0034629801293701787,-0.003262980129370173,0.0001105107181598175,,780.2431277674419,384.22953990996984
603,119.7873,0.1471,-0.0032853834781838565,-0.0030853834781838507,-0.0002796890474397462,,780.2431451627907,384.229531343657
604,119.806,0.1472,-0.0031077868269975273,-0.0030077868269975314,-0.0008698888130392879,,780.2431625581396,384.22952277734447
605,119.8255,0.1472,-0.002931148607846025,-0.002831148607846022,-0.0012639473921404187,,780.2431806976745,384.22951384455916
606,119.847,0.1472,-0.0027569064687815587,-0.002656906468781556,-0.0014676530049954062,,780.2432006976745,384.2295039955912
607,119.864,0.1471,-0.0025772731495212683,-0.0024772731495212655,-0.0014496527919041213,,780.2432165116279,384.2294962080356
608,119.8819,0.147,-0.002398718066300154,-0.002298718066300151,-0.0011359937440020285,,780.2432331627907,384.2294880081978
609,119.9011,0.1469,-0.0023217204351355797,-0.002221720435135577,-0.0008286052680401279,,780.2432510232559,384.22947921284157
610,119.9217,0.1468,-0.002146400060031965,-0.0020464000600319623,-0.0003279697157059225,,780.2432701860465,384.2294697761577
611,119.9407,0.1466,-0.002069162820858707,-0.001969162820858711,-1.9616536368560755e-05,,780.2432878604652,384.22946107242046
612,119.9603,0.1466,-0.0018926444057115605,-0.0017926444057115576,0.000185842532842595,,780.2433060930233,384.22945209382897
613,119.9796,0.1465,-0.001815766578551349,-0.0017157665785513462,0.00019274865711682576,,780.2433240465117,384.2294432526652
614,120.0002,0.1464,-0.0017404462034477028,-0.001540446203447704,9.338420945104176e-05,,780.2433432093023,384.2294338159831
615,120.0183,0.1462,-0.0015621307282352725,-0.0014621307282352697,6.078553977717505e-06,,780.2433600465117,384.2294255245297
616,120.0376,0.1463,-0.001485252901075082,-0.0013852529010750791,1.298467825205929e-05,,780.243378,384.2294166833672
617,120.0557,0.1465,-0.0013069374258626518,-0.0013069374258626518,-0.00047432097722138744,,780.2433948372094,384.2294083919146
618,120.0746,0.1466,-0.0012295803826850374,-0.0011295803826850415,-0.0008654854461963013,,780.2434124186047,384.2293997339894
619,120.095,0.1463,-0.0011540203995727139,-0.001054020399572711,-0.0011638851904867131,,780.2434313953489,384.2293903889276
620,120.1152,0.1462,-0.0010782208084516715,-0.0009782208084516755,-0.0011613202314016413,,780.2434501860465,384.22938113548463
621,120.1338,0.1462,-0.0010005043532609961,-0.0009005043532609933,-0.0006510376453134903,,780.2434674883722,384.22937261498794
622,120.1522,0.1462,-0.0009225482900616297,-0.0008225482900616268,0.00016020964415008887,,780.2434846046513,384.22936418610993
623,120.1723,0.1462,-0.0008466288949362313,-0.0007466288949362354,0.0005632569549227084,,780.2435033023256,384.2293549784773
624,120.1913,0.1462,-0.0007693916557629799,-0.000669391655762977,0.0006716101342601477,,780.2435209767442,384.22934627474535
625,120.2103,0.1461,-0.0006921544165897214,-0.0006921544165897214,0.000579963313597498,,780.2435386511628,384.22933757101384
626,120.2297,0.1461,-0.000715396393433862,-0.000615396393433866,0.00028638708618405895,,780.2435566976744,384.2293286840462
627,120.2476,0.1462,-0.0006368413102127504,-0.0005368413102127476,-9.995386591388211e-05,,780.2435733488372,384.22932048421563
628,120.2668,0.1464,-0.0005598436790482039,-0.00045984367904820106,-0.000692565389951938,,780.2435912093024,384.229311688867
